Time(s),CELL VOLTAGE 1 (100 uV),CELL VOLTAGE 2 (100 uV),CELL VOLTAGE 3 (100 uV),CELL VOLTAGE 4 (100 uV),CELL VOLTAGE 5 (100 uV),CELL VOLTAGE 6 (100 uV),CELL VOLTAGE 7 (100 uV),CELL VOLTAGE 8 (100 uV),CELL VOLTAGE 9 (100 uV),CELL VOLTAGE 10 (100 uV),CELL VOLTAGE 11 (100 uV),CELL VOLTAGE 12 (100 uV),Temperature(C)
32.477,40591,40534,40472,40496,40483,40470,40491,40456,40411,40201,40257,40173,0,41,41,41
72.425,40360,40305,40238,40239,40188,40206,40230,40201,40138,40141,40214,40143,0,41,41,41
112.449,40311,40257,40194,40194,40148,40166,40194,40165,40101,40104,40178,40162,0,41,41,41
152.402,40277,40221,40159,40163,40114,40127,40157,40135,40065,40067,40146,40051,0,41,41,41
192.906,40248,40192,40130,40133,40085,40095,40132,40102,40038,40044,40119,40047,0,40,40,40
232.870,40217,40160,40095,40103,40055,40071,40100,40073,40004,40013,40089,40033,0,40,40,40
272.859,40195,40135,40069,40072,40026,40041,40061,40044,39973,39984,40058,39967,0,40,40,40
312.335,40163,40105,40041,40046,39996,40005,40041,40015,39945,39954,40032,39922,0,40,40,40
352.797,40140,40077,40011,40016,39967,39975,40008,39986,39913,39920,40001,39893,0,40,40,40
392.327,40110,40047,39982,39986,39931,39947,39978,39956,39882,39899,39972,39914,0,40,40,40
432.263,40082,40018,39948,39955,39905,39914,39948,39926,39851,39858,39942,39828,0,40,40,40
472.278,40053,39991,39917,39923,39871,39888,39920,39892,39828,39827,39912,39901,0,40,40,40
512.199,40023,39958,39892,39893,39842,39856,39884,39868,39789,39796,39878,39779,0,40,40,40
552.201,39993,39929,39852,39862,39814,39825,39857,39833,39762,39765,39851,39784,0,40,40,40
592.174,39964,39896,39827,39834,39787,39793,39831,39804,39732,39736,39821,39789,0,40,40,40
632.691,39935,39866,39794,39802,39750,39764,39797,39774,39700,39704,39786,39720,0,40,40,40
672.717,39902,39836,39765,39771,39722,39737,39770,39743,39671,39673,39756,39651,0,40,40,40
712.609,39877,39807,39737,39742,39692,39707,39739,39712,39642,39644,39730,39727,0,40,40,40
752.105,39844,39775,39702,39709,39661,39675,39704,39681,39614,39617,39698,39588,0,40,40,40
792.076,39815,39746,39675,39680,39635,39643,39678,39652,39581,39586,39667,39559,0,40,40,40
832.068,39784,39715,39648,39649,39603,39618,39642,39622,39553,39557,39638,39536,0,40,40,40
872.053,39751,39683,39616,39618,39572,39589,39611,39597,39522,39525,39612,39502,0,40,40,40
912.560,39722,39653,39585,39591,39546,39555,39586,39565,39491,39498,39580,39467,0,40,40,40
951.994,39691,39624,39555,39563,39518,39526,39562,39535,39471,39468,39553,39434,0,40,40,40
991.994,39662,39595,39526,39532,39485,39497,39532,39509,39439,39445,39525,39426,0,39,39,39
1031.980,39631,39566,39500,39501,39459,39472,39495,39481,39409,39419,39498,39471,0,39,39,39
1072.421,39597,39535,39471,39475,39435,39445,39475,39453,39385,39394,39471,39407,0,39,39,39
1112.449,39570,39507,39444,39446,39406,39415,39451,39423,39360,39365,39442,39345,0,39,39,39
1152.446,39541,39477,39417,39419,39375,39390,39417,39399,39329,39340,39417,39337,0,39,39,39
1191.877,39509,39451,39389,39395,39352,39362,39394,39373,39304,39312,39392,39384,0,39,39,39
1231.859,39485,39424,39363,39364,39320,39335,39371,39347,39282,39291,39366,39309,0,39,39,39
1271.850,39457,39398,39336,39337,39296,39314,39347,39320,39261,39262,39339,39235,0,39,39,39
1311.805,39422,39368,39308,39315,39275,39285,39314,39298,39231,39238,39315,39201,0,39,39,39
1351.804,39400,39344,39289,39289,39250,39266,39294,39273,39207,39213,39288,39173,0,39,39,39
1391.778,39370,39317,39263,39262,39219,39239,39268,39251,39182,39189,39268,39151,0,39,39,39
1431.786,39347,39294,39236,39241,39200,39215,39249,39222,39165,39170,39243,39207,0,39,39,39
1471.750,39318,39267,39209,39217,39174,39191,39224,39201,39139,39150,39220,39123,0,39,39,39
1511.725,39293,39245,39191,39192,39150,39169,39206,39178,39118,39125,39197,39176,0,39,39,39
1552.203,39264,39218,39166,39171,39133,39145,39181,39154,39101,39112,39180,39124,0,39,39,39
1592.165,39244,39199,39145,39150,39106,39123,39155,39134,39076,39079,39152,39033,0,39,39,39
1632.124,39219,39175,39125,39128,39088,39105,39133,39118,39052,39061,39134,39014,0,39,39,39
1671.673,39195,39152,39103,39107,39064,39081,39111,39095,39031,39045,39114,39098,0,39,39,39
1711.622,39170,39130,39081,39085,39043,39060,39094,39069,39015,39020,39088,39015,0,39,39,39
1751.608,39146,39107,39056,39062,39026,39040,39066,39053,38992,39003,39072,38953,0,39,39,39
1791.578,39123,39085,39041,39041,39005,39022,39048,39034,38975,38981,39051,38941,0,39,39,39
1831.585,39102,39064,39016,39024,38983,39001,39029,39013,38957,38969,39032,38944,0,39,39,39
1872.066,39080,39044,39001,39001,38966,38985,39012,38996,38935,38944,39015,38896,0,39,39,39
1911.484,39062,39027,38982,38981,38944,38966,38995,38976,38917,38931,38994,38879,0,38,38,38
1951.493,39038,39003,38958,38966,38930,38943,38974,38955,38902,38915,38980,38937,0,38,38,38
1991.476,39021,38987,38943,38947,38911,38928,38956,38940,38881,38893,38960,38835,0,38,38,38
2031.424,39002,38969,38923,38926,38889,38908,38941,38921,38864,38874,38941,38815,0,38,38,38
2071.425,38981,38950,38911,38908,38873,38890,38925,38904,38848,38860,38921,38846,0,38,38,38
2111.403,38960,38928,38887,38890,38852,38874,38898,38887,38827,38841,38906,38828,0,38,38,38
2151.875,38939,38911,38868,38873,38840,38855,38888,38864,38817,38821,38889,38776,0,38,38,38
2191.348,38920,38892,38856,38853,38817,38838,38869,38847,38797,38806,38868,38748,0,38,38,38
2231.347,38905,38876,38835,38838,38800,38821,38858,38832,38782,38792,38856,38805,0,38,38,38
2271.880,38883,38858,38819,38822,38787,38803,38835,38812,38763,38768,38835,38707,0,38,38,38
2311.809,38869,38842,38807,38801,38764,38786,38822,38797,38746,38755,38817,38727,0,38,38,38
2351.826,38848,38823,38785,38788,38748,38767,38804,38779,38732,38735,38803,38690,0,38,38,38
2391.739,38833,38807,38764,38771,38732,38753,38781,38764,38709,38721,38787,38745,0,38,38,38
2431.305,38816,38791,38751,38754,38719,38740,38773,38746,38694,38704,38768,38645,0,38,38,38
2471.745,38796,38770,38733,38735,38698,38719,38753,38729,38678,38688,38752,38710,0,38,38,38
2511.745,38783,38757,38719,38719,38681,38703,38730,38710,38660,38670,38732,38619,0,38,38,38
2551.183,38762,38738,38697,38703,38665,38683,38714,38693,38642,38653,38720,38666,0,38,38,38
2591.183,38749,38722,38680,38682,38646,38668,38698,38675,38624,38635,38699,38619,0,38,38,38
2631.139,38728,38704,38661,38666,38627,38648,38681,38656,38607,38615,38681,38572,0,38,38,38
2671.175,38714,38684,38648,38649,38609,38630,38659,38640,38589,38594,38662,38537,0,38,38,38
2711.089,38696,38669,38624,38632,38595,38611,38638,38627,38565,38578,38644,38543,0,38,38,38
2751.593,38677,38649,38610,38612,38573,38595,38620,38605,38551,38559,38627,38513,0,38,38,38
2791.049,38659,38632,38590,38591,38553,38577,38610,38586,38534,38542,38607,38513,0,38,38,38
2831.537,38643,38612,38573,38576,38536,38555,38590,38565,38517,38525,38593,38560,0,38,38,38
2871.009,38625,38596,38555,38557,38518,38537,38567,38551,38490,38500,38572,38450,0,38,38,38
2911.486,38605,38578,38534,38537,38497,38515,38546,38528,38474,38482,38554,38437,0,38,38,38
2951.005,38588,38558,38508,38518,38477,38497,38525,38512,38452,38460,38532,38409,0,38,38,38
2991.473,38568,38538,38489,38500,38461,38478,38507,38493,38431,38441,38513,38389,0,38,38,38
3031.436,38550,38517,38475,38478,38440,38457,38484,38468,38411,38423,38491,38406,0,38,38,38
3070.909,38531,38497,38448,38461,38418,38433,38465,38450,38387,38395,38471,38359,0,38,38,38
3110.894,38512,38479,38429,38438,38397,38413,38442,38428,38366,38375,38453,38330,0,38,38,38
3150.853,38490,38459,38414,38415,38372,38393,38422,38404,38346,38355,38430,38305,0,38,38,38
3190.853,38472,38438,38387,38394,38354,38369,38404,38383,38322,38332,38407,38292,0,38,38,38
3230.866,38452,38416,38364,38373,38334,38345,38380,38359,38298,38306,38384,38363,0,38,38,38
3270.850,38429,38393,38340,38347,38306,38328,38354,38338,38275,38289,38365,38336,0,37,37,37
3310.757,38409,38371,38321,38326,38281,38300,38330,38312,38254,38262,38341,38217,0,37,37,37
3351.293,38385,38348,38295,38305,38263,38277,38312,38285,38233,38235,38315,38213,0,37,37,37
3390.763,38363,38327,38270,38280,38236,38251,38285,38261,38207,38207,38294,38169,0,37,37,37
3430.748,38339,38302,38245,38254,38210,38225,38257,38240,38173,38183,38267,38154,0,37,37,37
3470.705,38315,38275,38214,38227,38184,38198,38233,38209,38153,38158,38244,38118,0,37,37,37
3510.667,38292,38252,38185,38203,38156,38171,38202,38188,38118,38136,38217,38091,0,37,37,37
3551.197,38267,38225,38164,38177,38132,38143,38177,38158,38093,38104,38189,38066,0,37,37,37
3590.701,38246,38202,38136,38151,38102,38114,38145,38132,38063,38073,38162,38038,0,37,37,37
3631.093,38218,38173,38102,38121,38074,38087,38124,38099,38039,38044,38131,38010,0,37,37,37
3670.588,38191,38149,38078,38093,38044,38059,38093,38071,38006,38014,38103,38016,0,37,37,37
3711.054,38165,38119,38051,38064,38016,38028,38059,38048,37973,37984,38072,37970,0,37,37,37
3750.525,38140,38091,38017,38035,37986,38000,38031,38010,37948,37954,38043,37943,0,37,37,37
3790.537,38108,38061,37987,38004,37956,37967,37995,37984,37915,37929,38020,37962,0,37,37,37
3830.493,38082,38032,37961,37974,37924,37944,37967,37954,37884,37893,37985,37863,0,37,37,37
3870.474,38057,38002,37927,37945,37898,37909,37938,37924,37853,37858,37954,37839,0,37,37,37
3910.494,38023,37974,37896,37914,37864,37877,37906,37893,37823,37839,37927,37807,0,37,37,37
3950.475,37995,37941,37868,37883,37835,37849,37873,37862,37792,37803,37894,37784,0,37,37,37
3990.386,37966,37914,37837,37853,37807,37818,37851,37832,37763,37768,37866,37745,0,37,37,37
4030.901,37937,37884,37806,37821,37777,37790,37819,37803,37731,37742,37835,37709,0,37,37,37
4070.881,37908,37853,37781,37792,37747,37760,37783,37774,37702,37711,37805,37688,0,37,37,37
4110.345,37876,37821,37749,37764,37718,37731,37762,37743,37674,37682,37774,37654,0,37,37,37
4150.323,37849,37794,37723,37734,37691,37702,37738,37716,37646,37652,37746,37622,0,37,37,37
4190.321,37819,37764,37689,37707,37660,37673,37700,37687,37615,37626,37720,37656,0,37,37,37
4230.265,37788,37733,37664,37678,37635,37646,37678,37660,37586,37596,37690,37624,0,37,37,37
4270.313,37763,37705,37630,37646,37604,37622,37645,37633,37560,37572,37663,37614,0,37,37,37
4310.270,37732,37676,37605,37618,37578,37593,37619,37604,37530,37541,37632,37562,0,37,37,37
4350.728,37702,37649,37579,37593,37552,37563,37595,37582,37505,37516,37608,37481,0,37,37,37
4390.240,37678,37622,37554,37566,37524,37538,37571,37549,37479,37487,37577,37457,0,37,37,37
4430.677,37650,37595,37527,37538,37501,37513,37549,37522,37456,37461,37552,37430,0,37,37,37
4470.151,37625,37568,37495,37510,37475,37486,37518,37499,37426,37437,37527,37400,0,37,37,37
4510.102,37596,37542,37475,37485,37449,37460,37483,37475,37398,37409,37499,37425,0,37,37,37
4550.093,37572,37516,37447,37459,37425,37432,37462,37446,37373,37381,37474,37352,0,36,36,36
4590.568,37541,37488,37418,37431,37395,37408,37442,37419,37349,37360,37449,37412,0,36,36,36
4630.014,37515,37460,37393,37406,37372,37382,37406,37395,37320,37331,37419,37293,0,36,36,36
4670.019,37492,37435,37369,37379,37342,37355,37385,37372,37292,37304,37393,37288,0,36,36,36
4709.983,37463,37409,37337,37353,37317,37331,37357,37349,37266,37277,37367,37249,0,36,36,36
4749.998,37435,37384,37316,37325,37291,37308,37339,37318,37243,37255,37343,37245,0,36,36,36
4789.973,37409,37355,37287,37300,37267,37278,37310,37292,37216,37227,37319,37287,0,36,36,36
4829.928,37387,37333,37259,37275,37238,37252,37286,37266,37192,37202,37290,37165,0,36,36,36
4869.921,37360,37305,37231,37247,37211,37229,37258,37245,37163,37172,37262,37159,0,36,36,36
4910.394,37332,37278,37205,37221,37188,37203,37239,37215,37143,37149,37239,37154,0,36,36,36
4950.367,37307,37251,37183,37194,37163,37177,37212,37189,37116,37124,37215,37090,0,36,36,36
4989.826,37279,37224,37159,37171,37138,37150,37179,37168,37086,37100,37188,37091,0,36,36,36
5030.318,37254,37201,37131,37143,37113,37128,37159,37138,37065,37071,37161,37032,0,36,36,36
5070.313,37231,37174,37108,37116,37086,37099,37127,37115,37037,37045,37138,37020,0,36,36,36
5109.756,37202,37147,37076,37091,37067,37075,37110,37088,37013,37020,37111,36988,0,36,36,36
5149.747,37177,37122,37056,37065,37038,37055,37084,37062,36992,36993,37084,36959,0,36,36,36
5189.733,37151,37094,37029,37039,37012,37026,37060,37039,36966,36970,37058,36949,0,36,36,36
5229.735,37126,37071,37003,37011,36988,37006,37028,37015,36936,36944,37035,36917,0,36,36,36
5269.727,37100,37043,36977,36990,36962,36974,37008,36989,36914,36920,37011,36881,0,36,36,36
5310.192,37073,37017,36954,36962,36935,36955,36981,36967,36885,36899,36984,36879,0,35,35,35
5349.680,37049,36993,36926,36936,36909,36927,36956,36939,36865,36876,36965,36905,0,35,35,35
5390.163,37026,36968,36904,36913,36884,36902,36928,36916,36838,36850,36937,36808,0,35,35,35
5429.612,36998,36943,36874,36887,36866,36884,36913,36891,36816,36825,36913,36802,0,35,35,35
5469.574,36974,36919,36856,36862,36840,36857,36885,36870,36788,36799,36891,36760,0,35,35,35
5510.058,36943,36891,36826,36835,36813,36832,36864,36843,36766,36775,36863,36736,0,35,35,35
5549.593,36922,36870,36804,36814,36792,36809,36835,36819,36746,36757,36844,36709,0,35,35,35
5589.537,36895,36845,36780,36789,36769,36784,36818,36795,36725,36731,36817,36694,0,35,35,35
5629.526,36871,36820,36757,36767,36745,36761,36794,36774,36702,36706,36793,36667,0,35,35,35
5669.477,36848,36797,36733,36745,36725,36744,36770,36750,36678,36689,36771,36682,0,35,35,35
5709.458,36820,36772,36709,36722,36700,36715,36748,36730,36652,36664,36749,36646,0,35,35,35
5749.955,36800,36750,36683,36697,36680,36696,36724,36707,36631,36642,36725,36597,0,35,35,35
5789.386,36777,36727,36666,36675,36657,36673,36698,36685,36610,36621,36703,36673,0,35,35,35
5829.882,36750,36705,36641,36652,36635,36651,36676,36666,36589,36597,36678,36555,0,35,35,35
5869.344,36728,36682,36621,36632,36614,36628,36657,36645,36566,36579,36662,36526,0,35,35,35
5909.372,36707,36661,36595,36605,36593,36612,36641,36621,36547,36557,36638,36546,0,35,35,35
5949.322,36685,36639,36580,36586,36569,36588,36617,36601,36525,36536,36617,36483,0,35,35,35
5989.301,36663,36618,36558,36565,36547,36566,36592,36580,36505,36517,36599,36483,0,35,35,35
6029.282,36641,36595,36539,36548,36533,36545,36579,36559,36489,36497,36576,36445,0,35,35,35
6069.285,36617,36574,36512,36524,36507,36527,36555,36540,36463,36476,36555,36462,0,34,34,34
6109.238,36592,36553,36499,36505,36489,36505,36528,36521,36444,36454,36535,36458,0,34,34,34
6149.218,36575,36531,36478,36487,36469,36486,36520,36498,36431,36439,36518,36384,0,34,34,34
6189.675,36550,36512,36457,36468,36455,36467,36492,36480,36407,36422,36494,36376,0,34,34,34
6229.193,36531,36491,36434,36443,36430,36450,36482,36461,36390,36399,36477,36351,0,34,34,34
6269.642,36512,36472,36418,36427,36414,36430,36463,36442,36373,36381,36459,36370,0,34,34,34
6309.181,36492,36453,36401,36409,36397,36411,36442,36426,36351,36364,36437,36340,0,34,34,34
6349.082,36473,36435,36385,36387,36375,36392,36424,36406,36332,36349,36423,36288,0,34,34,34
6389.591,36455,36416,36362,36369,36360,36373,36408,36386,36316,36325,36402,36281,0,34,34,34
6429.078,36435,36396,36346,36349,36340,36360,36386,36371,36296,36309,36384,36295,0,34,34,34
6469.049,36413,36378,36329,36334,36324,36340,36371,36352,36280,36293,36365,36237,0,34,34,34
6509.011,36393,36359,36308,36317,36306,36324,36352,36333,36266,36276,36348,36233,0,34,34,34
6549.481,36374,36341,36293,36299,36286,36302,36331,36314,36245,36256,36331,36213,0,34,34,34
6588.971,36356,36324,36275,36281,36270,36287,36311,36299,36228,36236,36311,36181,0,34,34,34
6629.493,36338,36305,36258,36264,36251,36270,36299,36280,36214,36220,36292,36174,0,34,34,34
6668.921,36321,36288,36240,36246,36235,36255,36280,36265,36196,36211,36281,36184,0,34,34,34
6709.421,36306,36274,36223,36231,36218,36235,36265,36251,36176,36191,36262,36156,0,34,34,34
6748.865,36286,36256,36209,36217,36203,36221,36246,36234,36160,36173,36244,36133,0,34,34,34
6788.862,36271,36240,36191,36194,36185,36205,36235,36213,36149,36157,36228,36111,0,34,34,34
6828.823,36256,36223,36176,36178,36166,36188,36218,36201,36130,36143,36212,36114,0,34,34,34
6868.828,36238,36206,36159,36165,36151,36171,36205,36183,36118,36124,36196,36064,0,34,34,34
6908.785,36219,36187,36143,36148,36140,36155,36187,36169,36098,36107,36177,36049,0,34,34,34
6948.767,36203,36172,36127,36132,36119,36138,36162,36154,36080,36091,36163,36031,0,33,33,33
6989.228,36188,36157,36114,36115,36105,36125,36151,36140,36065,36078,36148,36025,0,33,33,33
7028.707,36169,36140,36096,36102,36090,36109,36133,36118,36051,36060,36129,36019,0,33,33,33
7069.169,36154,36125,36075,36087,36076,36093,36124,36105,36036,36047,36116,36021,0,33,33,33
7109.202,36140,36112,36065,36072,36065,36077,36103,36092,36017,36029,36096,35995,0,33,33,33
7149.156,36125,36095,36049,36053,36044,36064,36090,36075,36004,36016,36086,35957,0,33,33,33
7188.674,36106,36080,36036,36042,36032,36047,36080,36060,35993,36002,36068,35968,0,33,33,33
7228.637,36092,36064,36022,36025,36016,36034,36062,36045,35974,35990,36059,35926,0,33,33,33
7268.613,36074,36049,36000,36008,35996,36018,36041,36029,35959,35976,36044,35941,0,33,33,33
7308.579,36062,36034,35988,35991,35982,36003,36034,36013,35945,35956,36026,35961,0,33,33,33
7348.547,36047,36017,35977,35976,35966,35987,36019,35996,35936,35943,36011,35905,0,33,33,33
7388.572,36032,36002,35959,35963,35957,35972,36003,35982,35918,35925,35994,35861,0,33,33,33
7428.494,36016,35989,35946,35950,35935,35957,35989,35968,35901,35913,35980,35866,0,33,33,33
7468.482,36000,35975,35926,35934,35925,35943,35971,35954,35886,35899,35968,35935,0,33,33,33
7508.950,35983,35959,35913,35921,35911,35931,35956,35938,35872,35884,35951,35834,0,33,33,33
7548.460,35968,35941,35902,35905,35893,35911,35934,35923,35856,35870,35935,35848,0,33,33,33
7588.405,35954,35927,35884,35889,35881,35899,35920,35913,35841,35853,35922,35787,0,33,33,33
7628.390,35939,35913,35869,35876,35864,35883,35909,35900,35825,35839,35908,35778,0,33,33,33
7668.384,35925,35900,35857,35860,35851,35869,35899,35879,35814,35822,35892,35822,0,33,33,33
7708.354,35908,35885,35843,35847,35837,35858,35882,35863,35800,35809,35877,35749,0,33,33,33
7748.308,35898,35871,35830,35829,35822,35842,35869,35849,35785,35794,35862,35819,0,33,33,33
7788.799,35883,35856,35814,35814,35804,35826,35850,35835,35768,35781,35849,35814,0,33,33,33
7828.294,35866,35840,35793,35802,35793,35810,35842,35820,35755,35764,35831,35709,0,33,33,33
7868.249,35851,35827,35786,35785,35774,35797,35827,35806,35742,35756,35820,35683,0,33,33,33
7908.289,35836,35811,35765,35771,35759,35782,35803,35793,35723,35736,35805,35682,0,33,33,33
7948.733,35822,35797,35754,35759,35750,35765,35795,35774,35712,35727,35794,35655,0,33,33,33
7988.181,35808,35782,35740,35743,35734,35752,35778,35765,35693,35706,35776,35639,0,33,33,33
8028.718,35793,35768,35725,35731,35718,35735,35765,35749,35680,35691,35759,35636,0,33,33,33
8068.143,35779,35753,35713,35716,35706,35723,35753,35731,35670,35677,35745,35636,0,33,33,33
8108.156,35765,35739,35694,35698,35687,35708,35736,35717,35654,35662,35732,35594,0,33,33,33
8148.125,35745,35722,35681,35686,35678,35692,35722,35701,35640,35648,35715,35601,0,33,33,33
8188.109,35733,35709,35665,35670,35661,35676,35709,35688,35627,35629,35702,35582,0,33,33,33
8228.069,35720,35694,35653,35658,35641,35661,35693,35674,35608,35619,35685,35578,0,33,33,33
8268.531,35703,35680,35635,35639,35625,35650,35677,35659,35592,35605,35674,35563,0,33,33,33
8308.493,35688,35663,35619,35622,35615,35636,35660,35641,35578,35584,35657,35529,0,33,33,33
8348.006,35676,35651,35607,35608,35598,35619,35643,35625,35564,35571,35640,35510,0,32,32,32
8388.005,35661,35636,35596,35594,35581,35602,35634,35611,35548,35559,35627,35511,0,32,32,32
8428.433,35645,35620,35576,35582,35568,35588,35613,35602,35530,35539,35610,35492,0,32,32,32
